# freq[Hz]  -  FAS_mean  -  PSD_mean  -  PSD_minus_1std  -  PSD_plus_1std
1.00000000e-01 1.19665229e-01 2.00751507e-04 8.12547919e-05 4.95985118e-04
1.07226722e-01 1.24634788e-01 2.26786040e-04 9.28559234e-05 5.53889360e-04
1.14975700e-01 1.31436850e-01 2.51447940e-04 1.07638561e-04 5.87392343e-04
1.23284674e-01 1.42546295e-01 2.83013898e-04 1.28499054e-04 6.23326507e-04
1.32194115e-01 1.55586447e-01 3.18395759e-04 1.47080952e-04 6.89252127e-04
1.41747416e-01 1.65966959e-01 3.60955367e-04 1.69349607e-04 7.69347970e-04
1.51991108e-01 1.74980900e-01 4.12538983e-04 1.95175772e-04 8.71975097e-04
1.62975083e-01 1.85083280e-01 4.72063930e-04 2.23226414e-04 9.98288461e-04
1.74752840e-01 1.96600113e-01 5.37509312e-04 2.56547171e-04 1.12617208e-03
1.87381742e-01 2.09132293e-01 6.01363613e-04 2.88956802e-04 1.25153031e-03
2.00923300e-01 2.20774377e-01 6.59681163e-04 3.20850975e-04 1.35632823e-03
2.15443469e-01 2.29615066e-01 7.13355374e-04 3.57995834e-04 1.42145757e-03
2.31012970e-01 2.36336310e-01 7.65518216e-04 3.99940743e-04 1.46526242e-03
2.47707636e-01 2.42750054e-01 8.21117341e-04 4.40307638e-04 1.53127866e-03
2.65608778e-01 2.49955767e-01 8.87782149e-04 4.84352862e-04 1.62723751e-03
2.84803587e-01 2.58444042e-01 9.68638037e-04 5.39887565e-04 1.73787972e-03
3.05385551e-01 2.68000921e-01 1.05982244e-03 6.14272248e-04 1.82854364e-03
3.27454916e-01 2.77608592e-01 1.14854092e-03 6.93795552e-04 1.90134721e-03
3.51119173e-01 2.86446374e-01 1.22539195e-03 7.51524659e-04 1.99805213e-03
3.76493581e-01 2.94205369e-01 1.29310649e-03 7.87759100e-04 2.12263420e-03
4.03701726e-01 3.00479207e-01 1.36619684e-03 8.35448089e-04 2.23412303e-03
4.32876128e-01 3.06089726e-01 1.45658338e-03 9.17387539e-04 2.31269236e-03
4.64158883e-01 3.14091086e-01 1.56112673e-03 1.00647777e-03 2.42143121e-03
4.97702356e-01 3.25970213e-01 1.67557681e-03 1.09105168e-03 2.57325816e-03
5.33669923e-01 3.38325674e-01 1.79082300e-03 1.18330162e-03 2.71025319e-03
5.72236766e-01 3.46817969e-01 1.88813076e-03 1.26979670e-03 2.80756578e-03
6.13590727e-01 3.51557072e-01 1.97104573e-03 1.36045459e-03 2.85567876e-03
6.57933225e-01 3.55771169e-01 2.05154269e-03 1.46119476e-03 2.88040137e-03
7.05480231e-01 3.61140232e-01 2.13060781e-03 1.54546888e-03 2.93728959e-03
7.56463328e-01 3.66846873e-01 2.20676239e-03 1.60255908e-03 3.03876488e-03
8.11130831e-01 3.71864795e-01 2.27612202e-03 1.64859908e-03 3.14250537e-03
8.69749003e-01 3.76172079e-01 2.33514910e-03 1.69756024e-03 3.21221081e-03
9.32603347e-01 3.80212721e-01 2.38957161e-03 1.76196353e-03 3.24073250e-03
1.00000000e+00 3.84508753e-01 2.44769384e-03 1.83502116e-03 3.26492427e-03
1.07226722e+00 3.89514100e-01 2.51136028e-03 1.90945693e-03 3.30299697e-03
1.14975700e+00 3.95101845e-01 2.57475103e-03 1.97854335e-03 3.35061796e-03
1.23284674e+00 4.00696547e-01 2.63533395e-03 2.04610355e-03 3.39424905e-03
1.32194115e+00 4.05759423e-01 2.68797714e-03 2.10028042e-03 3.44012212e-03
1.41747416e+00 4.09091533e-01 2.71981987e-03 2.13163234e-03 3.47030770e-03
1.51991108e+00 4.08946430e-01 2.71828566e-03 2.14931610e-03 3.43787353e-03
1.62975083e+00 4.05471453e-01 2.69048921e-03 2.16182843e-03 3.34843047e-03
1.74752840e+00 4.01021934e-01 2.65709489e-03 2.17233363e-03 3.25003175e-03
1.87381742e+00 3.96878093e-01 2.62371846e-03 2.16754278e-03 3.17589974e-03
2.00923300e+00 3.92446438e-01 2.58585735e-03 2.15867289e-03 3.09757826e-03
2.15443469e+00 3.87646575e-01 2.54065827e-03 2.13797769e-03 3.01918233e-03
2.31012970e+00 3.82452938e-01 2.47963693e-03 2.09010177e-03 2.94177029e-03
2.47707636e+00 3.75165897e-01 2.38215858e-03 2.00624485e-03 2.82850794e-03
2.65608778e+00 3.64748575e-01 2.24630177e-03 1.89983516e-03 2.65595233e-03
2.84803587e+00 3.53020294e-01 2.10024532e-03 1.78762005e-03 2.46754360e-03
3.05385551e+00 3.41729811e-01 1.96522492e-03 1.67759251e-03 2.30217348e-03
3.27454916e+00 3.29895963e-01 1.83017487e-03 1.56715487e-03 2.13733825e-03
3.51119173e+00 3.16117189e-01 1.68067665e-03 1.44943487e-03 1.94881057e-03
3.76493581e+00 3.00978694e-01 1.52520695e-03 1.32646045e-03 1.75373207e-03
4.03701726e+00 2.85529572e-01 1.37623337e-03 1.20311560e-03 1.57426127e-03
4.32876128e+00 2.69520537e-01 1.23119675e-03 1.08056648e-03 1.40282478e-03
4.64158883e+00 2.52472072e-01 1.08476416e-03 9.56736271e-04 1.22992439e-03
4.97702356e+00 2.34949551e-01 9.42391653e-04 8.35841920e-04 1.06252391e-03
5.33669923e+00 2.17835667e-01 8.12104286e-04 7.24504168e-04 9.10296173e-04
5.72236766e+00 2.01373573e-01 6.95463960e-04 6.23266180e-04 7.76024972e-04
6.13590727e+00 1.85487402e-01 5.91477684e-04 5.31739139e-04 6.57927591e-04
6.57933225e+00 1.70295412e-01 5.00206507e-04 4.51111797e-04 5.54644217e-04
7.05480231e+00 1.55982508e-01 4.20813020e-04 3.80414192e-04 4.65502080e-04
7.56463328e+00 1.42544896e-01 3.51570668e-04 3.18799086e-04 3.87711069e-04
8.11130831e+00 1.29676893e-01 2.90818078e-04 2.64891569e-04 3.19282168e-04
8.69749003e+00 1.16943002e-01 2.36955432e-04 2.16813945e-04 2.58968014e-04
9.32603347e+00 1.04408557e-01 1.89526628e-04 1.74172807e-04 2.06233932e-04
1.00000000e+01 9.28613197e-02 1.49966280e-04 1.38309758e-04 1.62605194e-04
1.07226722e+01 8.29460365e-02 1.19277539e-04 1.10446937e-04 1.28814178e-04
1.14975700e+01 7.44168304e-02 9.58088978e-05 8.90666918e-05 1.03061478e-04
1.23284674e+01 6.66216743e-02 7.68549746e-05 7.15737492e-05 8.25258868e-05
1.32194115e+01 5.92810283e-02 6.09932530e-05 5.68310648e-05 6.54602711e-05
1.41747416e+01 5.24679593e-02 4.78939609e-05 4.46235476e-05 5.14040594e-05
1.51991108e+01 4.62730116e-02 3.73063056e-05 3.47714017e-05 4.00260091e-05
1.62975083e+01 4.07769294e-02 2.89441410e-05 2.70477195e-05 3.09735279e-05
1.74752840e+01 3.60433579e-02 2.25610473e-05 2.11756923e-05 2.40370350e-05
1.87381742e+01 3.19869048e-02 1.77605969e-05 1.67202855e-05 1.88656349e-05
2.00923300e+01 2.84346622e-02 1.40575824e-05 1.32473891e-05 1.49173261e-05
2.15443469e+01 2.53208648e-02 1.11485740e-05 1.05102906e-05 1.18256200e-05
2.31012970e+01 2.26832821e-02 8.92158914e-06 8.41316141e-06 9.46074238e-06
2.47707636e+01 2.05136289e-02 7.26950750e-06 6.86177082e-06 7.70147249e-06
2.65608778e+01 1.86979138e-02 6.02590367e-06 5.69766171e-06 6.37305562e-06
2.84803587e+01 1.70815776e-02 5.02927524e-06 4.76141618e-06 5.31220303e-06
3.05385551e+01 1.55848835e-02 4.18962276e-06 3.97088806e-06 4.42040638e-06
3.27454916e+01 1.42445965e-02 3.49594700e-06 3.31883687e-06 3.68250864e-06
3.51119173e+01 1.31061069e-02 2.95232467e-06 2.80602528e-06 3.10625176e-06
3.76493581e+01 1.21301113e-02 2.52606976e-06 2.40193243e-06 2.65662278e-06
4.03701726e+01 1.12615081e-02 2.17651327e-06 2.07165876e-06 2.28667487e-06
4.32876128e+01 1.05125212e-02 1.89361671e-06 1.80624178e-06 1.98521831e-06
4.64158883e+01 9.91178912e-03 1.67907066e-06 1.60458271e-06 1.75701650e-06
4.97702356e+01 9.42268317e-03 1.51486809e-06 1.44798331e-06 1.58484238e-06
5.33669923e+01 8.96981893e-03 1.37230145e-06 1.31114310e-06 1.43631254e-06
5.72236766e+01 8.52252185e-03 1.23890343e-06 1.18435797e-06 1.29596097e-06
6.13590727e+01 8.10183341e-03 1.11926821e-06 1.07137551e-06 1.16930182e-06
6.57933225e+01 7.72115822e-03 1.01624458e-06 9.73606887e-07 1.06074952e-06
7.05480231e+01 7.37101950e-03 9.25984987e-07 8.87300446e-07 9.66356097e-07
7.56463328e+01 7.06460318e-03 8.49860391e-07 8.14571628e-07 8.86677929e-07
8.11130831e+01 6.85757611e-03 7.99370920e-07 7.66601379e-07 8.33541245e-07
8.69749003e+01 6.78347148e-03 7.80912085e-07 7.48861825e-07 8.14334054e-07
9.32603347e+01 6.80705995e-03 7.85480484e-07 7.51931140e-07 8.20526718e-07
1.00000000e+02 6.87319887e-03 8.00200129e-07 7.63318553e-07 8.38863727e-07
